time,signal
0,0
6.964433183718222e-13,0.001300157604796948
1.200780332869585e-12,0.002241634010398005
2.209454361865109e-12,0.004124618312503427
3.661626779775629e-12,0.006835580922512617
6.56597161559667e-12,0.01225771284336493
1.237466128723875e-11,0.02310291721650459
2.399204063052291e-11,0.0447975824856216
4.665415750923317e-11,0.08713368023439677
8.398425321580644e-11,0.1569098837673404
1.311239019647583e-10,0.2450581394696424
1.857063990139684e-10,0.3470613917968243
2.094636841337787e-10,0.391367858007115
2.422879949754727e-10,0.4523666745728694
2.662589778162694e-10,0.4966332354442357
2.864793961506162e-10,0.5336745839757638
3.072964194303481e-10,0.5713780155386456
3.294026913156232e-10,0.6107205925786812
3.52730853412259e-10,0.6511302680671838
3.712855468724599e-10,0.682192868926811
3.848996639705479e-10,0.7042299556026624
3.960374103785806e-10,0.7216923926838553
4.058570314961256e-10,0.7366027945570982
4.153356169971449e-10,0.7505131613559446
4.258684284674057e-10,0.7653585745448737
4.438250524055746e-10,0.7890041670194698
4.566051471851795e-10,0.8044906038601384
4.66614061111172e-10,0.8158028925767068
4.776557127554838e-10,0.827407506341989
4.878476725212278e-10,0.8372780466109416
4.97517883492892e-10,0.8458769634945564
5.072168260331523e-10,0.8537343941961283
5.17199026573112e-10,0.8610030949618647
5.27944857688446e-10,0.8678845337111423
5.400885849469198e-10,0.8744693283325401
5.549234694566108e-10,0.8807900185431535
5.708631150920178e-10,0.8854883448301906
5.865515885396805e-10,0.8880498026404183
6.021032283751362e-10,0.8886572125381101
6.176346695919175e-10,0.8874553474586339
6.333104862735095e-10,0.8845287087204408
6.493385841143599e-10,0.8798613735412957
6.644028053005376e-10,0.8739794623161159
6.784326738960111e-10,0.8671879096142463
6.924817316751852e-10,0.8590385302729785
7.072397927086926e-10,0.8488239664085918
7.236681979758352e-10,0.8349955857596361
7.406526120341559e-10,0.8171285488431316
7.474766689480718e-10,0.8087575508333399
7.542771360260599e-10,0.7995551887260891
7.606424386784941e-10,0.7900511012145942
7.664184243995809e-10,0.7806199741869776
7.726682453944324e-10,0.7694682417602317
7.822030568294932e-10,0.7503430502140392
7.925957878858416e-10,0.7263585672045416
8.013364331055121e-10,0.7035506320038355
8.10532775538908e-10,0.6769501851280041
8.211693700953897e-10,0.6430246870504938
8.326226430443803e-10,0.6031611960882874
8.4443195930203e-10,0.5592419641428016
8.564936591225676e-10,0.5125796212601738
8.687725715942199e-10,0.4646089932548826
8.814308452527488e-10,0.4162060591434492
8.947579235672176e-10,0.3679392570598718
9.087124178916585e-10,0.3216637486235985
9.241523847983121e-10,0.2765254099678065
9.358377331652883e-10,0.2468140962761442
9.44496910035457e-10,0.2272631747686535
9.516071471985482e-10,0.2127307740342918
9.57723644585692e-10,0.2012786424075441
9.633401952730526e-10,0.1915736535687657
9.688931078829983e-10,0.1826994324491132
9.749223829500665e-10,0.1738248386998382
9.836590512368648e-10,0.1622533914560453
9.906856010994319e-10,0.153967128959992
9.956678852849413e-10,0.1486018635972821
1e-09,0.1442559371242141
1.001900822430874e-09,0.1387712360118226
1.003580181834058e-09,0.1340386467066025
1.005303614896442e-09,0.1293313300070391
1.008500385458815e-09,0.1210253647978659
1.014893926583559e-09,0.1059809909699253
1.023950522377706e-09,0.08785454017640504
1.032603266465822e-09,0.07356225818060902
1.04155806866513e-09,0.06138566520502302
1.050738888271243e-09,0.05118590203712892
1.061268646866105e-09,0.04178045975481213
1.076501584691378e-09,0.03145802897986058
1.090005798574683e-09,0.02480027849011279
1.100572170601126e-09,0.02084497459649134
1.110797810860063e-09,0.0178109060452538
1.121369117677491e-09,0.01530876631123068
1.132916366412215e-09,0.01315272650091915
1.146213377158372e-09,0.01125361094400872
1.162079874135723e-09,0.009613329323653774
1.182087671270963e-09,0.008238176267174277
1.209582714707827e-09,0.007116399578771316
1.23790466886028e-09,0.006455044732135024
1.267100754824622e-09,0.00600784731654294
1.298078526113561e-09,0.005636638764916851
1.331323518582991e-09,0.005280274758934546
1.367711937325112e-09,0.004905601091542221
1.40821180461616e-09,0.004494906190341897
1.454082956625178e-09,0.004037995977234006
1.507267221206284e-09,0.003528244335913722
1.570999311238286e-09,0.002960999700675333
1.649718478854722e-09,0.002343405160843197
1.73067928966488e-09,0.001812014035997962
1.813909808582257e-09,0.001372266126268837
1.901362018707344e-09,0.001013110525085871
1.994376734606647e-09,0.0007262878505944657
2e-09,0.0007121073923323218
2.000034154107348e-09,0.0007181618676925238
2.000058737963114e-09,0.000722848255811886
2.000107905674647e-09,0.0007322831819826745
2.000142631557607e-09,0.0007389289706537721
2.000201916823503e-09,0.0007502497329454949
2.000320487355295e-09,0.0007729519707225297
2.000557628418879e-09,0.0008187770401545752
2.001031910546048e-09,0.000909171900928893
2.001980474800385e-09,0.001084960063733631
2.00387760330906e-09,0.001418419175294186
2.007010470528502e-09,0.001926675857144067
2.010432953873586e-09,0.002400928839361356
2.013678628895497e-09,0.002730911116293212
2.016347279672245e-09,0.002881972039784107
2.018641880749163e-09,0.002913683333478035
2.021378462426249e-09,0.002830462569018229
2.025443555752953e-09,0.002482450625402777
2.02919771009421e-09,0.001945654096409016
2.035093273365682e-09,0.0007746871625861936
2.041166076453111e-09,-0.0006894981265897119
2.043588979046959e-09,-0.001381342568140819
2.045855578081592e-09,-0.002130673013846941
2.047860450348346e-09,-0.00289926579763284
2.049714846405529e-09,-0.003698549635941504
2.05e-09,-0.003827065386798343
2.050061362509061e-09,-0.003863550510834917
2.05010458924574e-09,-0.003889429890517895
2.050143309471659e-09,-0.003912592385671217
2.050177461598154e-09,-0.00393299431586351
2.050227917869468e-09,-0.003963089831622733
2.050328830412096e-09,-0.004023115208319738
2.050506268098544e-09,-0.004128125876586152
2.050861143471439e-09,-0.004336130099415471
2.051570894217231e-09,-0.004744262728230139
2.052990395708814e-09,-0.005530439036689309
2.055340857815579e-09,-0.006750231581255139
2.057864577557502e-09,-0.007955288784405132
2.060586424497828e-09,-0.009144495989602465
2.063600528889799e-09,-0.01034025419107551
2.066987329057735e-09,-0.01154649548711312
2.070913462353321e-09,-0.01278040265379018
2.075595736872311e-09,-0.01404328104646384
2.081360117488101e-09,-0.01531937664469154
2.088758848801802e-09,-0.01656809995728922
2.095341367113867e-09,-0.01736952369915785
2.103073739695874e-09,-0.01800012972916965
2.111636567964332e-09,-0.01837159059215954
2.119758844474865e-09,-0.01845051278658607
2.12784094096415e-09,-0.01830664627078416
2.138630778922994e-09,-0.01781721793436025
2.148525252871818e-09,-0.01705591594999162
2.157103198873141e-09,-0.01619048471504407
2.164930912514011e-09,-0.01530018131784714
2.171412479805778e-09,-0.01452979431414264
2.176378403775416e-09,-0.01392871323256125
2.180817401966418e-09,-0.01338222266214295
2.185412700314969e-09,-0.01281185813215342
2.187971124211568e-09,-0.01250195993998812
2.190426971073104e-09,-0.01221235291512386
2.19409807859982e-09,-0.0117949130487335
2.201440293653253e-09,-0.01101527172783352
2.209225313617212e-09,-0.010266977352776
2.218830905533928e-09,-0.009451704706418013
2.22770561918901e-09,-0.008810899175931503
2.235334772625441e-09,-0.008361811977810859
2.242328659310579e-09,-0.008046705517463386
2.247494432503348e-09,-0.007876388354722956
2.252985415879111e-09,-0.00775410826813171
2.257549335394148e-09,-0.007704390407000751
2.262305870564737e-09,-0.007711734212696587
2.268272824936235e-09,-0.007814097717490679
2.276466543534329e-09,-0.008102821607863187
2.289115480962906e-09,-0.008753550898235953
2.300968890323746e-09,-0.009470944296402124
2.31030682504939e-09,-0.01008670148080844
2.319111289041389e-09,-0.01070325281520461
2.329364160865246e-09,-0.01141529558331528
2.34191101596169e-09,-0.0123364091728064
2.355272934172985e-09,-0.0134559334994429
2.369129959862882e-09,-0.01480954942901003
2.383869691757114e-09,-0.01656295077153066
2.399858445809551e-09,-0.01911115123825302
2.41768756771459e-09,-0.02362141995862668
2.432353005252678e-09,-0.02874926616992149
2.4507739105535e-09,-0.03504105670240474
2.464844108485681e-09,-0.03801707581026438
2.478692089862706e-09,-0.038047935940291
2.494636778308076e-09,-0.03304971162384208
2.511349224922485e-09,-0.02023853984518902
2.527828819137548e-09,0.002049689489933031
2.543676081231703e-09,0.03541847789029862
2.557467273725124e-09,0.07640298621203785
2.570536147005567e-09,0.1287149956446287
2.58171602307049e-09,0.1874697050715205
2.591053482026359e-09,0.2512004759468864
2.598288440779025e-09,0.3129819769388635
2.604810881125806e-09,0.3765230585133454
2.612291235805418e-09,0.4564986748899574
2.619382279538908e-09,0.5378826047042536
2.627075520380238e-09,0.630528459834964
2.634772582529705e-09,0.7260158853930905
2.642564639308412e-09,0.8243446965037665
2.651576086043015e-09,0.939380264719373
2.663484199368048e-09,1.092543698491137
2.677938592353644e-09,1.27826366307876
2.69289091221845e-09,1.468377320571452
2.710284359996459e-09,1.681091942833143
2.716944702358264e-09,1.759161864592722
2.724483754457209e-09,1.844901441329661
2.728370869044439e-09,1.888101610464638
2.731875136929423e-09,1.926016840601053
2.737323068469512e-09,1.982276996556751
2.741504264648579e-09,2.023076774447157
2.746668364318923e-09,2.070316260261382
2.755816264868633e-09,2.145222736116077
2.766756718938787e-09,2.222761398867219
2.771174744389126e-09,2.249757869406068
2.775728297324185e-09,2.274360998989217
2.780192213185938e-09,2.296318665593803
2.787669815724618e-09,2.332534456117413
2.794720649983219e-09,2.369605228272207
2.802277569968679e-09,2.414532797444356
2.812358098631228e-09,2.482498391157484
2.82187528422847e-09,2.552403701701051
2.829128575159004e-09,2.607446822678976
2.836083724249932e-09,2.660027973191964
2.843329404411756e-09,2.713222275891182
2.851247760898407e-09,2.768346640463614
2.860451335515373e-09,2.827554903688088
2.87162865882852e-09,2.891987099336847
2.885883761899671e-09,2.962765513560108
2.90518822099245e-09,3.040775910489926
2.929184474255562e-09,3.11449872035531
2.952844547837e-09,3.167493606897249
2.977379429521301e-09,3.207021196112214
3.00375365539094e-09,3.236844180876456
3.032528222177485e-09,3.25890138001614
3.05e-09,3.268240745826942
3.050416792929293e-09,3.268351140303
3.051229501444698e-09,3.268575868172299
3.051494624827351e-09,3.268650777536442
3.051737751668649e-09,3.268720220888845
3.052224005351245e-09,3.268861165855371
3.053196512716437e-09,3.269150515768799
3.055141527446821e-09,3.269753370528208
3.059031556907589e-09,3.271020165443093
3.063739066396958e-09,3.272604063603619
3.068836383661806e-09,3.274326832100067
3.073261037466722e-09,3.275796008297423
3.07819566666388e-09,3.277372939681841
3.081768610994471e-09,3.278458521307432
3.085114706706153e-09,3.279428302473293
3.090285002282997e-09,3.280867734165449
3.09523848236931e-09,3.28237964458535
3.098782118227856e-09,3.283514793645967
3.1e-09,3.283888422721564
3.100283446264388e-09,3.283996456981397
3.10064986611336e-09,3.284134602284076
3.100965825673478e-09,3.284251968579509
3.101235255820523e-09,3.284350706884517
3.101774116114613e-09,3.284544463065738
3.102851836702792e-09,3.284917741217516
3.10500727787915e-09,3.285612587838985
3.109318160231866e-09,3.286830057606899
3.116240775328228e-09,3.2884232054104
3.123615476611252e-09,3.289765818627308
3.131520879269243e-09,3.290921554268892
3.14021272375739e-09,3.29194941158197
3.146862418296752e-09,3.29260199257091
3.15237602657539e-09,3.293074131440119
3.158074343468171e-09,3.293510097492219
3.164527099511556e-09,3.293958966947074
3.173075056228972e-09,3.294490285962747
3.182735967025272e-09,3.295020189354224
3.192256573909696e-09,3.29548728476781
3.195891811385538e-09,3.295660681291125
3.19968855388438e-09,3.295846690191328
3.203271357062171e-09,3.296024690095332
3.209665323863749e-09,3.296339799932963
3.218147703802044e-09,3.296743923816547
3.227681560129186e-09,3.29716625945474
3.240457642816661e-09,3.297649313833905
3.250752541626173e-09,3.297951750395997
3.258264555712535e-09,3.29813345090984
3.265536839807207e-09,3.298292503842583
3.273096014375783e-09,3.298448261692808
3.281514946171444e-09,3.298614076395491
3.291406619530856e-09,3.298798543207739
3.303312120318881e-09,3.299002293943539
3.318245341466553e-09,3.299225961088226
3.338996225223123e-09,3.299478618158192
3.36447171395433e-09,3.299707313512094
3.38695483622326e-09,3.299847114001675
3.409497966536325e-09,3.299941893510345
3.433512803594616e-09,3.300006122526811
3.459545750811067e-09,3.300047113764734
3.488579518274129e-09,3.300068220534102
3.521517917726923e-09,3.300073847749841
3.559486676380554e-09,3.300068202540586
3.604117954640751e-09,3.300055413603396
3.657879834319522e-09,3.300039464074114
3.724765724461889e-09,3.300023920824265
3.811714330509398e-09,3.300011765811343
3.932116269959991e-09,3.300004822822657
4.115222212229694e-09,3.300003626554943
4.397470888740546e-09,3.30000733076128
4.868148372278667e-09,3.300016713611331
5.519984233013705e-09,3.30003622402121
6.264692534077161e-09,3.300064939104877
7.120539545442906e-09,3.30009741119456
8.109406454755817e-09,3.300132027780471
9.261208206693237e-09,3.30017283895114
1.061722112209911e-08,3.300227632169244
1.222017893021257e-08,3.300312633329411
1.41174473952659e-08,3.300476678594493
1.427921211881846e-08,3.300509760952242
1.427962891174775e-08,3.300546872121037
1.428046249760634e-08,3.300617469873932
1.428091464854024e-08,3.300653402435446
1.428133424757208e-08,3.300685206948282
1.428217344563576e-08,3.300744513944883
1.428385184176313e-08,3.300847873107912
1.428720863401786e-08,3.301017599229257
1.429160585139792e-08,3.301308249951663
1.429496272386288e-08,3.301558894118072
1.429793453044418e-08,3.301721333030111
1.430107575175754e-08,3.301825568075714
1.430401346867784e-08,3.301870394873391
1.430915091097179e-08,3.301866808843249
1.431614170586293e-08,3.301784048797217
1.432240925837406e-08,3.301683561126145
1.432581068859626e-08,3.301604977162965
1.432751140370736e-08,3.301567115635254
1.432836176126291e-08,3.30154939144958
1.432878694004068e-08,3.301540844148397
1.432921211881846e-08,3.301532512189736
1.432928376424948e-08,3.301515037181295
1.432935176447981e-08,3.301498123193469
1.432940526870664e-08,3.301485090334003
1.432944671378207e-08,3.301475097206985
1.432951610019914e-08,3.301458460208284
1.43296548730333e-08,3.301425576714599
1.432989608616531e-08,3.30136962887188
1.433037851242933e-08,3.301262199379268
1.433134336495738e-08,3.301064154937138
1.433327307001348e-08,3.300727798276674
1.433713248012568e-08,3.300245270368599
1.43418007029033e-08,3.299911633983296
1.434675545023637e-08,3.299766253769811
1.4352198025758e-08,3.299755901150334
1.435827927738772e-08,3.299855738379082
1.4365262976162e-08,3.300046579282127
1.437349713191647e-08,3.300301407330294
1.438180891073309e-08,3.300547200402864
1.439368618100316e-08,3.300901171822872
1.440788966197128e-08,3.301315932804564
1.442609304480846e-08,3.30174505783263
1.444574045256249e-08,3.301997101176128
1.445989508959101e-08,3.302014117334089
1.447735036616099e-08,3.301858242367575
1.449188010264685e-08,3.301610448874618
1.450286846541849e-08,3.30135559057089
1.452091205587982e-08,3.300845619935563
1.453600783982388e-08,3.300373385062978
1.455035677012921e-08,3.29992853491282
1.456555235578507e-08,3.299506596498911
1.458197818316868e-08,3.299118629059823
1.46007016569234e-08,3.298782728363924
1.462276092532053e-08,3.298535744157237
1.464948094572815e-08,3.298425438978293
1.468290734437516e-08,3.298500914615344
1.472644216229989e-08,3.298797124268098
1.478635637353923e-08,3.299306654607181
1.487005185346596e-08,3.299905887008029
1.497422782831718e-08,3.300359376300178
1.509664714894504e-08,3.300573811551583
1.525209480574005e-08,3.300630651482943
1.532921211881846e-08,3.300620827033354
1.532962891174775e-08,3.300544300278252
1.533044311289057e-08,3.300401818445611
1.533070321135355e-08,3.300358642416778
1.533094664652618e-08,3.300319349861651
1.533143351687144e-08,3.300244029131084
1.533240725756195e-08,3.300105826326907
1.533435473894297e-08,3.299878885734506
1.533824970170501e-08,3.299572360677118
1.534242456857152e-08,3.299399916402815
1.534585464644517e-08,3.299346692052174
1.534906438337582e-08,3.299343692747966
1.535457052617503e-08,3.299396525863083
1.536155359033033e-08,3.299506248836819
1.536927133369494e-08,3.299653086075906
1.53742417262567e-08,3.299957477145051
1.537672692253758e-08,3.300195883252842
1.537796952067802e-08,3.30031066080688
1.537859081974824e-08,3.300365396219867
1.537921211881846e-08,3.300418191909971
1.53794379963271e-08,3.300455225704903
1.537966313458646e-08,3.30049163353009
1.53798664200871e-08,3.30052385540701
1.538006332369214e-08,3.300554433175589
1.538045713090224e-08,3.300613715739926
1.538124474532242e-08,3.300725042663426
1.53828199741628e-08,3.300920975392371
1.538597043184354e-08,3.301221741197358
1.539227134720503e-08,3.301554462008739
1.539952858204546e-08,3.301637884156148
1.540725246461024e-08,3.301513583421736
1.541571499354863e-08,3.301237621804276
1.542362737348641e-08,3.300919372498044
1.543207519616058e-08,3.300574416957736
1.544394279947947e-08,3.300133415447368
1.545464792772302e-08,3.299804861171995
1.546592063309027e-08,3.29953351611855
1.548029078154674e-08,3.299301388227523
1.549331042009584e-08,3.299197924540893
1.550485011690778e-08,3.299177980678603
1.551693063510353e-08,3.29922028116222
1.553011409770189e-08,3.299329808167171
1.554561931630515e-08,3.29953435907997
1.556225912186121e-08,3.299884644151737
1.558425172404684e-08,3.300525491145605
1.560585322940505e-08,3.301199994372341
1.562820374506687e-08,3.301837098233281
1.565140508760571e-08,3.302381028224454
1.567352300430882e-08,3.302774363108587
1.569671738914156e-08,3.303060938660135
1.572188628373706e-08,3.303245261582281
1.574968921902926e-08,3.303325979751629
1.578102249953227e-08,3.303302939196167
1.581688821865679e-08,3.303178475334656
1.585868557084913e-08,3.302960111861482
1.590851289396333e-08,3.302661956325776
1.596967583067694e-08,3.302306614432848
1.604775265222762e-08,3.301927627379981
1.615302335470926e-08,3.301572185464969
1.630724880973413e-08,3.301302226888869
1.649137864023044e-08,3.301206951531858
1.671164223319572e-08,3.301215660678991
1.698112703171762e-08,3.30115706613494
1.729896323858387e-08,3.300292180212001
1.76246412557671e-08,3.295516184238537
1.792206424243202e-08,3.278880318872769
1.819973737059757e-08,3.238355657268795
1.842178047650054e-08,3.178804066085073
1.863081783810681e-08,3.091461831400455
1.882763152115103e-08,2.966487782005535
1.893417571722026e-08,2.870554750044913
1.904054233294059e-08,2.735977331071586
1.912271240621265e-08,2.590302722175183
1.918954929866182e-08,2.443410226701939
1.927318970358244e-08,2.221534322973723
1.934645199019709e-08,1.991674474313593
1.940969765413838e-08,1.77087538610717
1.945899265902396e-08,1.590322651822071
1.949452301415862e-08,1.460422986764537
1.951142106253885e-08,1.399814441056459
1.952838331821322e-08,1.340105212481766
1.954153304434437e-08,1.294573743786482
1.955312935972166e-08,1.256100342065193
1.956723266375002e-08,1.212162208114683
1.958338641748858e-08,1.164916031748604
1.960111908457278e-08,1.114425009269655
1.961977046925403e-08,1.060207135751108
1.963439266960523e-08,1.014139737277842
1.964069385355466e-08,0.9929236686406735
1.964684247957675e-08,0.971100422170724
1.96531214203266e-08,0.9471373687192797
1.966225241310178e-08,0.9083491285545221
1.966994927190427e-08,0.8716104534782876
1.967813672433234e-08,0.8282927134659833
1.968853598811052e-08,0.7671679062206408
1.970156250806367e-08,0.6823396411145262
1.971515730344606e-08,0.5871743598549892
1.972864573290705e-08,0.4913677344469251
1.97432610666431e-08,0.3935068331221333
1.975717963910694e-08,0.3112564618996833
1.97724542787029e-08,0.2360625620267078
1.979274512595454e-08,0.1600659304302369
1.98156098439578e-08,0.1016190488917426
